Time, Acceleration, Velocity, Position
0, 0.000413, 0.000206, 0.000069
1, 0.000496, 0.000252, 0.000092
2, 0.000578, 0.000306, 0.000119
3, 0.000661, 0.000368, 0.000153
4, 0.000743, 0.000438, 0.000193
5, 0.000826, 0.000516, 0.000241
6, 0.000908, 0.000603, 0.000297
7, 0.000991, 0.000698, 0.000362
8, 0.001074, 0.000801, 0.000437
9, 0.001156, 0.000913, 0.000522
10, 0.001239, 0.001032, 0.000619
11, 0.001321, 0.001160, 0.000729
12, 0.001404, 0.001297, 0.000852
13, 0.001487, 0.001441, 0.000989
14, 0.001569, 0.001594, 0.001140
15, 0.001652, 0.001755, 0.001308
16, 0.001734, 0.001924, 0.001491
17, 0.001817, 0.002102, 0.001693
18, 0.001899, 0.002288, 0.001912
19, 0.001982, 0.002482, 0.002151
20, 0.002065, 0.002684, 0.002409
21, 0.002147, 0.002895, 0.002688
22, 0.002230, 0.003113, 0.002988
23, 0.002312, 0.003341, 0.003311
24, 0.002395, 0.003576, 0.003656
25, 0.002478, 0.003820, 0.004026
26, 0.002560, 0.004071, 0.004420
27, 0.002643, 0.004332, 0.004841
28, 0.002725, 0.004600, 0.005287
29, 0.002808, 0.004877, 0.005761
30, 0.002890, 0.005162, 0.006263
31, 0.002973, 0.005455, 0.006793
32, 0.003056, 0.005756, 0.007354
33, 0.003138, 0.006066, 0.007945
34, 0.003221, 0.006384, 0.008567
35, 0.003303, 0.006710, 0.009222
36, 0.003386, 0.007044, 0.009910
37, 0.003468, 0.007387, 0.010631
38, 0.003551, 0.007738, 0.011387
39, 0.003634, 0.008097, 0.012179
40, 0.003716, 0.008465, 0.013007
41, 0.003799, 0.008841, 0.013872
42, 0.003881, 0.009225, 0.014775
43, 0.003964, 0.009617, 0.015717
44, 0.004046, 0.010017, 0.016699
45, 0.004129, 0.010426, 0.017721
46, 0.004212, 0.010843, 0.018785
47, 0.004294, 0.011268, 0.019890
48, 0.004377, 0.011702, 0.021038
49, 0.004459, 0.012144, 0.022231
50, 0.004542, 0.012594, 0.023468
51, 0.004624, 0.013052, 0.024750
52, 0.004707, 0.013519, 0.026078
53, 0.004790, 0.013994, 0.027454
54, 0.004872, 0.014477, 0.028877
55, 0.004955, 0.014968, 0.030349
56, 0.005037, 0.015468, 0.031871
57, 0.005120, 0.015975, 0.033443
58, 0.005202, 0.016492, 0.035066
59, 0.005285, 0.017016, 0.036742
60, 0.005368, 0.017549, 0.038470
61, 0.005450, 0.018089, 0.040252
62, 0.005533, 0.018639, 0.042088
63, 0.005615, 0.019196, 0.043980
64, 0.005698, 0.019762, 0.045928
65, 0.005780, 0.020336, 0.047932
66, 0.005863, 0.020918, 0.049995
67, 0.005946, 0.021508, 0.052116
68, 0.006028, 0.022107, 0.054297
69, 0.006111, 0.022714, 0.056538
70, 0.006193, 0.023329, 0.058840
71, 0.006276, 0.023952, 0.061204
72, 0.006358, 0.024584, 0.063631
73, 0.006441, 0.025224, 0.066121
74, 0.006523, 0.025872, 0.068676
75, 0.006606, 0.026529, 0.071296
76, 0.006689, 0.027193, 0.073982
77, 0.006771, 0.027866, 0.076735
78, 0.006854, 0.028548, 0.079555
79, 0.006936, 0.029237, 0.082445
80, 0.007019, 0.029935, 0.085403
81, 0.007101, 0.030641, 0.088432
82, 0.007184, 0.031355, 0.091532
83, 0.007266, 0.032078, 0.094703
84, 0.007349, 0.032808, 0.097947
85, 0.007431, 0.033547, 0.101265
86, 0.007514, 0.034295, 0.104657
87, 0.007597, 0.035050, 0.108124
88, 0.007679, 0.035814, 0.111667
89, 0.007762, 0.036586, 0.115287
90, 0.007844, 0.037366, 0.118985
91, 0.007927, 0.038155, 0.122761
92, 0.008009, 0.038952, 0.126616
93, 0.008092, 0.039757, 0.130552
94, 0.008174, 0.040570, 0.134568
95, 0.008257, 0.041392, 0.138666
96, 0.008339, 0.042221, 0.142846
97, 0.008422, 0.043059, 0.147110
98, 0.008504, 0.043906, 0.151459
99, 0.008587, 0.044760, 0.155892
100, 0.008669, 0.045623, 0.160411
101, 0.008752, 0.046494, 0.165017
102, 0.008835, 0.047374, 0.169710
103, 0.008917, 0.048261, 0.174492
104, 0.009000, 0.049157, 0.179363
105, 0.009082, 0.050061, 0.184323
106, 0.009165, 0.050973, 0.189375
107, 0.009247, 0.051894, 0.194518
108, 0.009330, 0.052823, 0.199754
109, 0.009412, 0.053760, 0.205083
110, 0.009495, 0.054705, 0.210506
111, 0.009577, 0.055659, 0.216025
112, 0.009660, 0.056621, 0.221638
113, 0.009742, 0.057591, 0.227349
114, 0.009825, 0.058569, 0.233157
115, 0.009907, 0.059556, 0.239063
116, 0.009990, 0.060551, 0.245068
117, 0.010072, 0.061554, 0.251173
118, 0.010155, 0.062565, 0.257379
119, 0.010237, 0.063585, 0.263687
120, 0.010320, 0.064613, 0.270097
121, 0.010402, 0.065649, 0.276610
122, 0.010485, 0.066693, 0.283227
123, 0.010567, 0.067746, 0.289948
124, 0.010650, 0.068807, 0.296776
125, 0.010732, 0.069876, 0.303710
126, 0.010815, 0.070953, 0.310751
127, 0.010897, 0.072039, 0.317901
128, 0.010980, 0.073133, 0.325159
129, 0.011062, 0.074235, 0.332528
130, 0.011145, 0.075345, 0.340007
131, 0.011227, 0.076464, 0.347597
132, 0.011310, 0.077590, 0.355300
133, 0.011392, 0.078726, 0.363115
134, 0.011475, 0.079869, 0.371045
135, 0.011557, 0.081021, 0.379089
136, 0.011640, 0.082180, 0.387249
137, 0.011722, 0.083348, 0.395526
138, 0.011805, 0.084525, 0.403919
139, 0.011887, 0.085709, 0.412431
140, 0.011970, 0.086902, 0.421061
141, 0.012052, 0.088103, 0.429812
142, 0.012135, 0.089313, 0.438682
143, 0.012217, 0.090530, 0.447675
144, 0.012300, 0.091756, 0.456789
145, 0.012382, 0.092990, 0.466026
146, 0.012465, 0.094233, 0.475387
147, 0.012547, 0.095483, 0.484873
148, 0.012630, 0.096742, 0.494484
149, 0.012712, 0.098009, 0.504222
150, 0.012794, 0.099284, 0.514086
151, 0.012877, 0.100568, 0.524079
152, 0.012959, 0.101860, 0.534200
153, 0.013042, 0.103160, 0.544451
154, 0.013124, 0.104468, 0.554832
155, 0.013207, 0.105785, 0.565345
156, 0.013289, 0.107110, 0.575989
157, 0.013372, 0.108443, 0.586767
158, 0.013454, 0.109784, 0.597678
159, 0.013537, 0.111133, 0.608724
160, 0.013619, 0.112491, 0.619905
161, 0.013701, 0.113857, 0.631223
162, 0.013784, 0.115231, 0.642677
163, 0.013866, 0.116614, 0.654269
164, 0.013949, 0.118005, 0.666000
165, 0.014031, 0.119404, 0.677870
166, 0.014114, 0.120811, 0.689881
167, 0.014196, 0.122226, 0.702033
168, 0.014279, 0.123650, 0.714327
169, 0.014361, 0.125082, 0.726763
170, 0.014443, 0.126522, 0.739343
171, 0.014526, 0.127971, 0.752068
172, 0.014608, 0.129428, 0.764938
173, 0.014691, 0.130893, 0.777954
174, 0.014773, 0.132366, 0.791116
175, 0.014856, 0.133847, 0.804427
176, 0.014938, 0.135337, 0.817886
177, 0.015020, 0.136835, 0.831495
178, 0.015103, 0.138341, 0.845253
179, 0.015185, 0.139855, 0.859163
180, 0.015268, 0.141378, 0.873225
181, 0.015350, 0.142909, 0.887439
182, 0.015432, 0.144448, 0.901807
183, 0.015515, 0.145995, 0.916329
184, 0.015597, 0.147551, 0.931006
185, 0.015680, 0.149115, 0.945839
186, 0.015762, 0.150687, 0.960829
187, 0.015844, 0.152267, 0.975977
188, 0.015927, 0.153856, 0.991283
189, 0.016009, 0.155453, 1.006748
190, 0.016092, 0.157058, 1.022374
191, 0.016174, 0.158671, 1.038160
192, 0.016256, 0.160292, 1.054108
193, 0.016339, 0.161922, 1.070219
194, 0.016421, 0.163560, 1.086493
195, 0.016504, 0.165206, 1.102931
196, 0.016586, 0.166861, 1.119534
197, 0.016668, 0.168524, 1.136304
198, 0.016751, 0.170195, 1.153239
199, 0.016833, 0.171874, 1.170343
200, 0.016916, 0.173561, 1.187615
201, 0.016998, 0.175257, 1.205055
202, 0.017080, 0.176961, 1.222666
203, 0.017163, 0.178673, 1.240448
204, 0.017245, 0.180393, 1.258401
205, 0.017327, 0.182122, 1.276527
206, 0.017410, 0.183859, 1.294826
207, 0.017492, 0.185604, 1.313299
208, 0.017574, 0.187357, 1.331947
209, 0.017657, 0.189119, 1.350770
210, 0.017739, 0.190889, 1.369771
211, 0.017821, 0.192667, 1.388948
212, 0.017904, 0.194453, 1.408304
213, 0.017986, 0.196247, 1.427839
214, 0.018069, 0.198050, 1.447554
215, 0.018151, 0.199861, 1.467449
216, 0.018233, 0.201680, 1.487526
217, 0.018316, 0.203508, 1.507786
218, 0.018398, 0.205343, 1.528228
219, 0.018480, 0.207187, 1.548854
220, 0.018563, 0.209039, 1.569666
221, 0.018645, 0.210900, 1.590663
222, 0.018727, 0.212768, 1.611846
223, 0.018810, 0.214645, 1.633217
224, 0.018892, 0.216530, 1.654775
225, 0.018974, 0.218424, 1.676523
226, 0.019056, 0.220325, 1.698460
227, 0.019139, 0.222235, 1.720588
228, 0.019221, 0.224153, 1.742908
229, 0.019303, 0.226079, 1.765419
230, 0.019386, 0.228014, 1.788124
231, 0.019468, 0.229956, 1.811022
232, 0.019550, 0.231907, 1.834116
233, 0.019633, 0.233866, 1.857404
234, 0.019715, 0.235834, 1.880889
235, 0.019797, 0.237809, 1.904571
236, 0.019880, 0.239793, 1.928451
237, 0.019962, 0.241785, 1.952530
238, 0.020044, 0.243786, 1.976809
239, 0.020126, 0.245794, 2.001287
240, 0.020209, 0.247811, 2.025967
241, 0.020291, 0.249836, 2.050850
242, 0.020373, 0.251869, 2.075935
243, 0.020456, 0.253910, 2.101224
244, 0.020538, 0.255960, 2.126717
245, 0.020620, 0.258018, 2.152416
246, 0.020702, 0.260084, 2.178321
247, 0.020785, 0.262158, 2.204433
248, 0.020867, 0.264241, 2.230753
249, 0.020949, 0.266332, 2.257281
250, 0.021031, 0.268431, 2.284019
251, 0.021114, 0.270538, 2.310968
252, 0.021196, 0.272654, 2.338128
253, 0.021278, 0.274777, 2.365499
254, 0.021360, 0.276909, 2.393083
255, 0.021443, 0.279049, 2.420881
256, 0.021525, 0.281198, 2.448894
257, 0.021607, 0.283354, 2.477121
258, 0.021689, 0.285519, 2.505565
259, 0.021772, 0.287692, 2.534225
260, 0.021854, 0.289874, 2.563103
261, 0.021936, 0.292063, 2.592200
262, 0.022018, 0.294261, 2.621516
263, 0.022101, 0.296467, 2.651052
264, 0.022183, 0.298681, 2.680809
265, 0.022265, 0.300903, 2.710789
266, 0.022347, 0.303134, 2.740991
267, 0.022429, 0.305373, 2.771416
268, 0.022512, 0.307620, 2.802065
269, 0.022594, 0.309875, 2.832940
270, 0.022676, 0.312138, 2.864040
271, 0.022758, 0.314410, 2.895368
272, 0.022840, 0.316690, 2.926923
273, 0.022923, 0.318978, 2.958706
274, 0.023005, 0.321275, 2.990719
275, 0.023087, 0.323579, 3.022962
276, 0.023169, 0.325892, 3.055435
277, 0.023251, 0.328213, 3.088140
278, 0.023334, 0.330542, 3.121078
279, 0.023416, 0.332880, 3.154249
280, 0.023498, 0.335226, 3.187654
281, 0.023580, 0.337579, 3.221294
282, 0.023662, 0.339942, 3.255170
283, 0.023744, 0.342312, 3.289283
284, 0.023827, 0.344690, 3.323633
285, 0.023909, 0.347077, 3.358222
286, 0.023991, 0.349472, 3.393049
287, 0.024073, 0.351875, 3.428116
288, 0.024155, 0.354287, 3.463425
289, 0.024237, 0.356706, 3.498973
290, 0.024320, 0.359134, 3.534766
291, 0.024402, 0.361570, 3.570801
292, 0.024484, 0.364015, 3.607080
293, 0.024566, 0.366467, 3.643604
294, 0.024648, 0.368928, 3.680373
295, 0.024730, 0.371397, 3.717390
296, 0.024812, 0.373874, 3.754653
297, 0.024895, 0.376359, 3.792165
298, 0.024977, 0.378853, 3.829926
299, 0.025059, 0.381355, 3.867935
300, 0.025141, 0.383865, 3.906197
301, 0.025223, 0.386383, 3.944709
302, 0.025305, 0.388909, 3.983473
303, 0.025387, 0.391444, 4.022491
304, 0.025469, 0.393987, 4.061762
305, 0.025551, 0.396538, 4.101288
306, 0.025634, 0.399097, 4.141070
307, 0.025716, 0.401664, 4.181108
308, 0.025798, 0.404240, 4.221403
309, 0.025880, 0.406824, 4.261956
310, 0.025962, 0.409416, 4.302768
311, 0.026044, 0.412016, 4.343840
312, 0.026126, 0.414625, 4.385172
313, 0.026208, 0.417242, 4.426765
314, 0.026290, 0.419866, 4.468620
315, 0.026372, 0.422500, 4.510738
316, 0.026454, 0.425141, 4.553121
317, 0.026536, 0.427790, 4.595767
318, 0.026619, 0.430448, 4.638680
319, 0.026701, 0.433114, 4.681857
320, 0.026783, 0.435788, 4.725302
321, 0.026865, 0.438471, 4.769015
322, 0.026947, 0.441161, 4.812997
323, 0.027029, 0.443860, 4.857247
324, 0.027111, 0.446567, 4.901770
325, 0.027193, 0.449282, 4.946561
326, 0.027275, 0.452006, 4.991627
327, 0.027357, 0.454737, 5.036963
328, 0.027439, 0.457477, 5.082573
329, 0.027521, 0.460225, 5.128458
330, 0.027603, 0.462981, 5.174619
331, 0.027685, 0.465746, 5.221056
332, 0.027767, 0.468518, 5.267768
333, 0.027849, 0.471299, 5.314758
334, 0.027931, 0.474088, 5.362029
335, 0.028013, 0.476885, 5.409576
336, 0.028095, 0.479691, 5.457407
337, 0.028177, 0.482504, 5.505515
338, 0.028259, 0.485326, 5.553905
339, 0.028341, 0.488156, 5.602581
340, 0.028423, 0.490994, 5.651538
341, 0.028505, 0.493841, 5.700781
342, 0.028587, 0.496695, 5.750306
343, 0.028669, 0.499558, 5.800118
344, 0.028751, 0.502429, 5.850219
345, 0.028833, 0.505308, 5.900605
346, 0.028915, 0.508196, 5.951281
347, 0.028997, 0.511091, 6.002244
348, 0.029079, 0.513995, 6.053498
349, 0.029161, 0.516907, 6.105044
350, 0.029243, 0.519827, 6.156879
351, 0.029325, 0.522756, 6.209010
352, 0.029407, 0.525692, 6.261432
353, 0.029489, 0.528637, 6.314147
354, 0.029571, 0.531590, 6.367160
355, 0.029652, 0.534551, 6.420465
356, 0.029734, 0.537520, 6.474071
357, 0.029816, 0.540498, 6.527970
358, 0.029898, 0.543483, 6.582169
359, 0.029980, 0.546477, 6.636668
360, 0.030062, 0.549480, 6.691464
361, 0.030144, 0.552490, 6.746564
362, 0.030226, 0.555508, 6.801963
363, 0.030308, 0.558535, 6.857664
364, 0.030390, 0.561570, 6.913671
365, 0.030472, 0.564613, 6.969979
366, 0.030554, 0.567664, 7.026594
367, 0.030635, 0.570724, 7.083512
368, 0.030717, 0.573791, 7.140737
369, 0.030799, 0.576867, 7.198271
370, 0.030881, 0.579951, 7.256111
371, 0.030963, 0.583043, 7.314262
372, 0.031045, 0.586144, 7.372721
373, 0.031127, 0.589252, 7.431489
374, 0.031209, 0.592369, 7.490572
375, 0.031290, 0.595494, 7.549964
376, 0.031372, 0.598627, 7.609671
377, 0.031454, 0.601768, 7.669690
378, 0.031536, 0.604918, 7.730023
379, 0.031618, 0.608076, 7.790674
380, 0.031700, 0.611242, 7.851639
381, 0.031781, 0.614416, 7.912923
382, 0.031863, 0.617598, 7.974523
383, 0.031945, 0.620788, 8.036442
384, 0.032027, 0.623987, 8.098681
385, 0.032109, 0.627194, 8.161240
386, 0.032191, 0.630409, 8.224120
387, 0.032272, 0.633632, 8.287323
388, 0.032354, 0.636863, 8.350846
389, 0.032436, 0.640103, 8.414696
390, 0.032518, 0.643350, 8.478868
391, 0.032600, 0.646606, 8.543367
392, 0.032681, 0.649870, 8.608190
393, 0.032763, 0.653143, 8.673340
394, 0.032845, 0.656423, 8.738819
395, 0.032927, 0.659712, 8.804626
396, 0.033009, 0.663008, 8.870762
397, 0.033090, 0.666313, 8.937228
398, 0.033172, 0.669626, 9.004025
399, 0.033254, 0.672948, 9.071154
400, 0.033336, 0.676277, 9.138615
401, 0.033417, 0.679615, 9.206410
402, 0.033499, 0.682961, 9.274538
403, 0.033581, 0.686315, 9.343000
404, 0.033663, 0.689677, 9.411802
405, 0.033744, 0.693047, 9.480936
406, 0.033826, 0.696426, 9.550412
407, 0.033908, 0.699812, 9.620222
408, 0.033990, 0.703207, 9.690372
409, 0.034071, 0.706610, 9.760864
410, 0.034153, 0.710022, 9.831696
411, 0.034235, 0.713441, 9.902870
412, 0.034317, 0.716869, 9.974384
413, 0.034398, 0.720304, 10.046242
414, 0.034480, 0.723748, 10.118446
415, 0.034562, 0.727200, 10.190992
416, 0.034643, 0.730661, 10.263887
417, 0.034725, 0.734129, 10.337125
418, 0.034807, 0.737605, 10.410710
419, 0.034888, 0.741090, 10.484647
420, 0.034970, 0.744583, 10.558929
421, 0.035052, 0.748084, 10.633564
422, 0.035133, 0.751594, 10.708547
423, 0.035215, 0.755111, 10.783880
424, 0.035297, 0.758637, 10.859570
425, 0.035378, 0.762170, 10.935609
426, 0.035460, 0.765712, 11.012005
427, 0.035542, 0.769262, 11.088752
428, 0.035623, 0.772820, 11.165855
429, 0.035705, 0.776387, 11.243317
430, 0.035787, 0.779962, 11.321133
431, 0.035868, 0.783544, 11.399310
432, 0.035950, 0.787135, 11.477842
433, 0.036032, 0.790734, 11.556734
434, 0.036113, 0.794342, 11.635990
435, 0.036195, 0.797957, 11.715604
436, 0.036276, 0.801581, 11.795583
437, 0.036358, 0.805212, 11.875921
438, 0.036440, 0.808852, 11.956623
439, 0.036521, 0.812500, 12.037692
440, 0.036603, 0.816156, 12.119123
441, 0.036684, 0.819821, 12.200924
442, 0.036766, 0.823493, 12.283089
443, 0.036848, 0.827174, 12.365620
444, 0.036929, 0.830863, 12.448524
445, 0.037011, 0.834560, 12.531794
446, 0.037092, 0.838265, 12.615437
447, 0.037174, 0.841978, 12.699448
448, 0.037255, 0.845699, 12.783830
449, 0.037337, 0.849429, 12.868587
450, 0.037418, 0.853167, 12.953716
451, 0.037500, 0.856913, 13.039223
452, 0.037582, 0.860667, 13.125099
453, 0.037663, 0.864429, 13.211353
454, 0.037745, 0.868200, 13.297987
455, 0.037826, 0.871978, 13.384995
456, 0.037908, 0.875765, 13.472383
457, 0.037989, 0.879560, 13.560148
458, 0.038071, 0.883363, 13.648293
459, 0.038152, 0.887174, 13.736821
460, 0.038234, 0.890993, 13.825727
461, 0.038315, 0.894821, 13.915020
462, 0.038397, 0.898656, 14.004692
463, 0.038478, 0.902500, 14.094749
464, 0.038560, 0.906352, 14.185194
465, 0.038641, 0.910212, 14.276020
466, 0.038723, 0.914080, 14.367237
467, 0.038804, 0.917956, 14.458838
468, 0.038886, 0.921841, 14.550827
469, 0.038967, 0.925733, 14.643207
470, 0.039048, 0.929634, 14.735975
471, 0.039130, 0.933543, 14.829134
472, 0.039211, 0.937460, 14.922684
473, 0.039293, 0.941385, 15.016624
474, 0.039374, 0.945319, 15.110962
475, 0.039456, 0.949260, 15.205689
476, 0.039537, 0.953210, 15.300816
477, 0.039618, 0.957168, 15.396333
478, 0.039700, 0.961134, 15.492248
479, 0.039781, 0.965108, 15.588560
480, 0.039863, 0.969090, 15.685270
481, 0.039944, 0.973080, 15.782379
482, 0.040026, 0.977079, 15.879888
483, 0.040107, 0.981085, 15.977794
484, 0.040188, 0.985100, 16.076105
485, 0.040270, 0.989123, 16.174814
486, 0.040351, 0.993154, 16.273932
487, 0.040432, 0.997193, 16.373447
488, 0.040514, 1.001240, 16.473366
489, 0.040595, 1.005296, 16.573696
490, 0.040677, 1.009359, 16.674427
491, 0.040758, 1.013431, 16.775568
492, 0.040839, 1.017511, 16.877113
493, 0.040921, 1.021599, 16.979067
494, 0.041002, 1.025695, 17.081434
495, 0.041083, 1.029799, 17.184208
496, 0.041165, 1.033912, 17.287395
497, 0.041246, 1.038032, 17.390991
498, 0.041327, 1.042161, 17.494999
499, 0.041409, 1.046298, 17.599424
500, 0.041490, 1.050443, 17.704258
501, 0.041571, 1.054596, 17.809513
502, 0.041652, 1.058757, 17.915180
503, 0.041734, 1.062926, 18.021261
504, 0.041815, 1.067104, 18.127766
505, 0.041896, 1.071289, 18.234684
506, 0.041978, 1.075483, 18.342026
507, 0.042059, 1.079685, 18.449781
508, 0.042140, 1.083894, 18.557957
509, 0.042221, 1.088113, 18.666561
510, 0.042303, 1.092339, 18.775581
511, 0.042384, 1.096573, 18.885029
512, 0.042465, 1.100816, 18.994898
513, 0.042546, 1.105066, 19.105190
514, 0.042628, 1.109325, 19.215912
515, 0.042709, 1.113592, 19.327057
516, 0.042790, 1.117867, 19.438631
517, 0.042871, 1.122150, 19.550631
518, 0.042952, 1.126441, 19.663057
519, 0.043034, 1.130740, 19.775919
520, 0.043115, 1.135048, 19.889206
521, 0.043196, 1.139363, 20.002930
522, 0.043277, 1.143687, 20.117081
523, 0.043358, 1.148019, 20.231663
524, 0.043440, 1.152359, 20.346685
525, 0.043521, 1.156707, 20.462135
526, 0.043602, 1.161063, 20.578028
527, 0.043683, 1.165427, 20.694351
528, 0.043764, 1.169799, 20.811110
529, 0.043846, 1.174180, 20.928310
530, 0.043927, 1.178568, 21.045946
531, 0.044008, 1.182965, 21.164026
532, 0.044089, 1.187370, 21.282541
533, 0.044170, 1.191783, 21.401497
534, 0.044251, 1.196204, 21.520899
535, 0.044332, 1.200633, 21.640738
536, 0.044413, 1.205071, 21.761026
537, 0.044495, 1.209516, 21.881752
538, 0.044576, 1.213969, 22.002926
539, 0.044657, 1.218431, 22.124550
540, 0.044738, 1.222901, 22.246613
541, 0.044819, 1.227379, 22.369129
542, 0.044900, 1.231865, 22.492090
543, 0.044981, 1.236359, 22.615498
544, 0.045062, 1.240861, 22.739363
545, 0.045143, 1.245371, 22.863672
546, 0.045224, 1.249890, 22.988438
547, 0.045305, 1.254416, 23.113651
548, 0.045386, 1.258950, 23.239319
549, 0.045468, 1.263493, 23.365442
550, 0.045549, 1.268044, 23.492016
551, 0.045630, 1.272603, 23.619053
552, 0.045711, 1.277170, 23.746540
553, 0.045792, 1.281745, 23.874481
554, 0.045873, 1.286328, 24.002888
555, 0.045954, 1.290920, 24.131748
556, 0.046035, 1.295519, 24.261074
557, 0.046116, 1.300127, 24.390854
558, 0.046197, 1.304742, 24.521099
559, 0.046278, 1.309366, 24.651802
560, 0.046359, 1.313998, 24.782972
561, 0.046440, 1.318638, 24.914604
562, 0.046521, 1.323286, 25.046701
563, 0.046602, 1.327942, 25.179260
564, 0.046683, 1.332606, 25.312290
565, 0.046764, 1.337278, 25.445782
566, 0.046844, 1.341959, 25.579748
567, 0.046925, 1.346647, 25.714176
568, 0.047006, 1.351344, 25.849075
569, 0.047087, 1.356049, 25.984446
570, 0.047168, 1.360761, 26.120285
571, 0.047249, 1.365482, 26.256599
572, 0.047330, 1.370211, 26.393383
573, 0.047411, 1.374948, 26.530640
574, 0.047492, 1.379694, 26.668377
575, 0.047573, 1.384447, 26.806580
576, 0.047654, 1.389208, 26.945267
577, 0.047735, 1.393977, 27.084423
578, 0.047815, 1.398755, 27.224056
579, 0.047896, 1.403541, 27.364174
580, 0.047977, 1.408334, 27.504765
581, 0.048058, 1.413136, 27.645844
582, 0.048139, 1.417946, 27.787395
583, 0.048220, 1.422764, 27.929428
584, 0.048301, 1.427590, 28.071949
